0,272
0.01,295
0.02,311
0.03,318
0.04,321
0.05,323
0.06,323
0.07,323
0.08,323
0.09,323
0.1,324
0.11,324
0.12,322
0.13,322
0.14,322
0.15,322
0.16,324
0.17,323
0.18,323
0.19,323
0.2,322
0.21,324
0.22,324
0.23,323
0.24,323
0.25,321
0.26,323
0.27,323
0.28,322
0.29,323
0.3,322
0.31,323
0.32,324
0.33,324
0.34,324
0.35,323
0.36,324
0.37,321
0.38,323
0.39,324
0.4,325
0.41,323
0.42,324
0.43,324
0.44,324
0.45,323
0.46,325
0.47,324
0.48,322
0.49,321
0.5,323
0.51,323
0.52,325
0.53,325
0.54,325
0.55,324
0.56,323
0.57,322
0.58,323
0.59,322
0.6,323
0.61,324
0.62,323
0.63,324
0.64,323
0.65,323
0.66,321
0.67,323
0.68,323
0.69,323
0.7,326
0.71,323
0.72,320
0.73,322
0.74,323
0.75,324
0.76,324
0.77,325
0.78,325
0.79,324
0.8,325
0.81,324
0.82,325
0.83,325
0.84,324
0.85,324
0.86,324
0.87,323
0.88,325
0.89,325
0.9,326
0.91,325
0.92,324
0.93,323
0.94,324
0.95,324
0.96,324
0.97,325
0.98,325
0.99,324
1,324
1.01,325
1.02,324
1.03,324
1.04,324
1.05,325
1.06,324
1.07,324
1.08,324
1.09,324
1.1,323
1.11,324
1.12,325
1.13,325
1.14,325
1.15,325
1.16,325
1.17,324
1.18,324
1.19,324
1.2,326
1.21,324
1.22,324
1.23,324
1.24,324
1.25,325
1.26,323
1.27,323
1.28,319
1.29,322
1.3,323
1.31,327
1.32,326
1.33,326
1.34,325
1.35,324
1.36,325
1.37,324
1.38,326
1.39,323
1.4,323
1.41,326
1.42,323
1.43,323
1.44,318
1.45,325
1.46,325
1.47,326
1.48,330
1.49,323
1.5,323
1.51,325
1.52,320
1.53,323
1.54,325
1.55,310
1.56,323
1.57,322
1.58,323
1.59,334
1.6,331
1.61,344
1.62,333
1.63,316
1.64,326
1.65,329
1.66,323
1.67,325
1.68,323
1.69,325
1.7,327
1.71,328
1.72,319
1.73,322
1.74,325
1.75,326
1.76,324
1.77,325
1.78,326
1.79,323
1.8,323
1.81,322
1.82,324
1.83,325
1.84,324
1.85,323
1.86,323
1.87,323
1.88,322
1.89,326
1.9,326
1.91,326
1.92,339
1.93,324
1.94,322
1.95,329
1.96,328
1.97,329
1.98,319
1.99,323
2,323
2.01,324
2.02,325
2.03,324
2.04,323
2.05,324
2.06,324
2.07,317
2.08,324
2.09,327
2.1,330
2.11,326
2.12,326
2.13,328
2.14,326
2.15,326
2.16,324
2.17,324
2.18,325
2.19,327
2.2,323
2.21,322
2.22,328
2.23,321
2.24,312
2.25,316
2.26,318
2.27,318
2.28,321
2.29,325
2.3,323
2.31,324
2.32,325
2.33,327
2.34,320
2.35,324
2.36,324
2.37,324
2.38,325
2.39,326
2.4,325
2.41,328
2.42,325
2.43,324
2.44,324
2.45,323
2.46,325
2.47,325
2.48,324
2.49,322
2.5,322
2.51,317
2.52,329
2.53,309
2.54,314
2.55,321
2.56,324
2.57,334
2.58,326
2.59,322
2.6,329
2.61,326
2.62,324
2.63,325
2.64,322
2.65,325
2.66,324
2.67,322
2.68,323
2.69,326
2.7,322
2.71,321
2.72,321
2.73,328
2.74,317
2.75,319
2.76,319
2.77,325
2.78,322
2.79,324
2.8,324
2.81,325
2.82,327
2.83,325
2.84,325
2.85,324
2.86,323
2.87,324
2.88,323
2.89,324
2.9,324
2.91,324
2.92,324
2.93,325
2.94,324
2.95,324
2.96,324
2.97,324
2.98,325
2.99,324
3,324
3.01,325
3.02,325
3.03,324
3.04,324
3.05,324
3.06,324
3.07,325
3.08,324
3.09,324
3.1,324
3.11,324
3.12,324
3.13,325
3.14,324
3.15,324
3.16,325
3.17,324
3.18,324
3.19,325
3.2,325
3.21,324
3.22,325
3.23,324
3.24,324
3.25,324
3.26,324
3.27,324
3.28,325
3.29,324
3.3,324
3.31,323
3.32,324
3.33,324
3.34,322
3.35,324
3.36,323
3.37,323
3.38,324
3.39,324
3.4,326
3.41,325
3.42,328
3.43,325
3.44,323
3.45,321
3.46,322
3.47,324
3.48,326
3.49,325
3.5,324
3.51,323
3.52,323
3.53,324
3.54,324
3.55,324
3.56,325
3.57,324
3.58,324
3.59,326
3.6,324
3.61,322
3.62,324
3.63,324
3.64,324
3.65,324
3.66,323
3.67,324
3.68,328
3.69,324
3.7,324
3.71,325
3.72,324
3.73,324
3.74,320
3.75,329
3.76,334
3.77,327
3.78,323
3.79,325
3.8,321
3.81,321
3.82,322
3.83,323
3.84,324
3.85,324
3.86,323
3.87,323
3.88,324
3.89,324
3.9,324
3.91,325
3.92,324
3.93,324
3.94,323
3.95,325
3.96,324
3.97,324
3.98,323
3.99,324
4,324
4.01,322
4.02,324
4.03,324
4.04,324
4.05,324
4.06,325
4.07,325
4.08,324
4.09,324
4.1,324
4.11,324
4.12,324
4.13,324
4.14,324
4.15,324
4.16,325
4.17,325
4.18,324
4.19,324
4.2,324
4.21,324
4.22,324
4.23,324
4.24,326
4.25,325
4.26,325
4.27,325
4.28,325
4.29,324
4.3,325
4.31,324
4.32,324
4.33,325
4.34,324
4.35,324
4.36,325
4.37,324
4.38,323
4.39,323
4.4,324
4.41,324
4.42,323
4.43,324
4.44,325
4.45,324
4.46,324
4.47,323
4.48,324
4.49,326
4.5,324
4.51,327
4.52,327
4.53,327
4.54,329
4.55,324
4.56,323
4.57,321
4.58,325
4.59,325
4.6,325
4.61,331
4.62,328
4.63,326
4.64,324
4.65,323
4.66,323
4.67,324
4.68,325
4.69,326
4.7,325
4.71,326
4.72,325
4.73,324
4.74,323
4.75,324
4.76,325
4.77,325
4.78,324
4.79,324
4.8,324
4.81,324
4.82,325
4.83,323
4.84,324
4.85,325
4.86,325
4.87,324
4.88,324
4.89,326
4.9,324
4.91,326
4.92,327
4.93,323
4.94,323
4.95,324
4.96,325
4.97,324
4.98,324
4.99,324
5,324
5.01,323
5.02,325
5.03,325
5.04,324
5.05,324
5.06,326
5.07,325
5.08,325
5.09,325
5.1,323
5.11,328
5.12,329
5.13,332
5.14,329
5.15,332
5.16,327
5.17,326
5.18,321
5.19,324
5.2,323
5.21,325
5.22,327
5.23,326
5.24,325
5.25,324
5.26,324
5.27,318
5.28,323
5.29,324
5.3,324
5.31,323
5.32,322
5.33,321
5.34,324
5.35,325
5.36,327
5.37,324
5.38,327
5.39,323
5.4,329
5.41,332
5.42,325
5.43,321
5.44,324
5.45,326
5.46,326
5.47,326
5.48,322
5.49,322
5.5,319
5.51,325
5.52,325
5.53,323
5.54,320
5.55,322
5.56,325
5.57,320
5.58,322
5.59,318
5.6,324
5.61,326
5.62,325
5.63,326
5.64,331
5.65,331
5.66,328
5.67,325
5.68,324
5.69,324
5.7,324
5.71,322
5.72,326
5.73,324
5.74,326
5.75,325
5.76,324
5.77,325
5.78,325
5.79,325
5.8,324
5.81,325
5.82,323
5.83,324
5.84,323
5.85,323
5.86,323
5.87,321
5.88,320
5.89,323
5.9,324
5.91,324
5.92,328
5.93,328
5.94,325
5.95,322
5.96,324
5.97,325
5.98,326
5.99,326
6,325
6.01,322
6.02,323
6.03,323
6.04,324
6.05,325
6.06,328
6.07,325
6.08,325
6.09,323
6.1,324
6.11,325
6.12,324
6.13,324
6.14,326
6.15,325
6.16,324
6.17,325
6.18,324
6.19,324
6.2,325
6.21,324
6.22,327
6.23,324
6.24,323
6.25,323
6.26,325
6.27,323
6.28,324
6.29,325
6.3,324
6.31,323
6.32,324
6.33,325
6.34,323
6.35,324
6.36,324
6.37,324
6.38,323
6.39,321
6.4,324
6.41,323
6.42,323
6.43,324
6.44,324
6.45,325
6.46,324
6.47,324
6.48,326
6.49,325
6.5,326
6.51,324
6.52,326
6.53,323
6.54,324
6.55,323
6.56,322
6.57,322
6.58,365
6.59,333
6.6,320
6.61,318
6.62,317
6.63,320
6.64,323
6.65,322
6.66,322
6.67,321
6.68,323
6.69,324
6.7,325
6.71,325
6.72,325
6.73,326
6.74,326
6.75,327
6.76,324
6.77,325
6.78,323
6.79,325
6.8,324
6.81,324
6.82,324
6.83,324
6.84,324
6.85,323
6.86,326
6.87,323
6.88,322
6.89,323
6.9,326
6.91,326
6.92,324
6.93,322
6.94,325
6.95,327
6.96,325
6.97,327
6.98,325
6.99,324
7,324
7.01,326
7.02,325
7.03,324
7.04,324
7.05,324
7.06,322
7.07,323
7.08,322
7.09,324
7.1,325
7.11,325
7.12,320
7.13,324
7.14,320
7.15,324
7.16,326
7.17,324
7.18,324
7.19,324
7.2,324
7.21,324
7.22,324
7.23,324
7.24,326
7.25,323
7.26,323
7.27,324
7.28,325
7.29,322
7.3,324
7.31,324
7.32,324
7.33,324
7.34,324
7.35,324
7.36,323
7.37,324
7.38,324
7.39,324
7.4,326
7.41,323
7.42,324
7.43,324
7.44,324
7.45,324
7.46,324
7.47,323
7.48,324
7.49,324
7.5,326
7.51,325
7.52,325
7.53,324
7.54,324
7.55,324
7.56,324
7.57,324
7.58,324
7.59,324
7.6,324
7.61,324
7.62,324
7.63,325
7.64,324
7.65,325
7.66,324
7.67,324
7.68,324
7.69,324
7.7,324
7.71,323
7.72,323
7.73,323
7.74,324
7.75,327
7.76,325
7.77,324
7.78,323
7.79,324
7.8,325
7.81,324
7.82,324
7.83,323
7.84,324
7.85,322
7.86,324
7.87,323
7.88,324
7.89,324
7.9,324
7.91,323
7.92,324
7.93,323
7.94,324
7.95,324
7.96,323
7.97,322
7.98,325
7.99,328
8,321
8.01,332
8.02,326
8.03,337
8.04,338
8.05,328
8.06,321
8.07,326
8.08,328
8.09,326
8.1,326
8.11,324
8.12,332
8.13,323
8.14,326
8.15,325
8.16,324
8.17,325
8.18,335
8.19,324
8.2,325
8.21,324
8.22,324
8.23,322
8.24,323
8.25,323
8.26,321
8.27,322
8.28,324
8.29,324
8.3,323
8.31,325
8.32,327
8.33,325
8.34,323
8.35,324
8.36,326
8.37,323
8.38,321
8.39,323
8.4,322
8.41,327
8.42,327
8.43,324
8.44,324
8.45,324
8.46,330
8.47,322
8.48,326
8.49,320
8.5,324
8.51,328
8.52,326
8.53,324
8.54,324
8.55,322
8.56,322
8.57,323
8.58,324
8.59,325
8.6,324
8.61,325
8.62,324
8.63,324
8.64,325
8.65,323
8.66,316
8.67,321
8.68,326
8.69,324
8.7,324
8.71,330
8.72,323
8.73,323
8.74,326
8.75,327
8.76,324
8.77,324
8.78,322
8.79,322
8.8,325
8.81,324
8.82,323
8.83,322
8.84,321
8.85,323
8.86,325
8.87,325
8.88,324
8.89,323
8.9,324
8.91,324
8.92,318
8.93,320
8.94,326
8.95,327
8.96,325
8.97,320
8.98,321
8.99,322
9,324
9.01,326
9.02,325
9.03,328
9.04,326
9.05,323
9.06,326
9.07,324
9.08,321
9.09,324
9.1,325
9.11,325
9.12,322
9.13,321
9.14,323
9.15,326
9.16,326
9.17,325
9.18,322
9.19,321
9.2,323
9.21,327
9.22,324
9.23,320
9.24,324
9.25,324
9.26,324
9.27,322
9.28,322
9.29,327
9.3,326
9.31,326
9.32,330
9.33,319
9.34,325
9.35,323
9.36,326
9.37,323
9.38,327
9.39,326
9.4,325
9.41,325
9.42,325
9.43,322
9.44,321
9.45,324
9.46,325
9.47,326
9.48,326
9.49,325
9.5,323
9.51,324
9.52,327
9.53,325
9.54,329
9.55,328
9.56,325
9.57,320
9.58,322
9.59,325
9.6,324
9.61,324
9.62,324
9.63,325
9.64,327
9.65,325
9.66,324
9.67,323
9.68,323
9.69,325
9.7,324
9.71,323
9.72,325
9.73,326
9.74,324
9.75,324
9.76,326
9.77,326
9.78,323
9.79,326
9.8,329
9.81,325
9.82,325
9.83,325
9.84,323
9.85,326
9.86,325
9.87,319
9.88,320
9.89,325
9.9,323
9.91,332
9.92,327
9.93,326
9.94,324
9.95,321
9.96,324
9.97,324
9.98,325
9.99,326
10,326
10.01,326
10.02,318
10.03,324
10.04,327
10.05,325
10.06,325
10.07,326
10.08,325
10.09,324
10.1,323
10.11,327
10.12,324
10.13,321
10.14,323
10.15,324
10.16,326
10.17,320
10.18,323
10.19,325
10.2,320
10.21,323
10.22,324
10.23,325
10.24,325
10.25,325
10.26,322
10.27,323
10.28,323
10.29,320
10.3,323
10.31,329
10.32,333
10.33,319
10.34,324
10.35,309
10.36,311
10.37,320
10.38,321
10.39,323
10.4,324
10.41,325
10.42,326
10.43,327
10.44,323
10.45,323
10.46,323
10.47,320
10.48,323
10.49,322
10.5,324
10.51,325
10.52,325
10.53,325
10.54,323
10.55,322
10.56,319
10.57,325
10.58,328
10.59,327
10.6,324
10.61,324
10.62,325
10.63,329
10.64,327
10.65,325
10.66,325
10.67,322
10.68,325
10.69,327
10.7,322
10.71,321
10.72,326
10.73,319
10.74,322
10.75,326
10.76,325
10.77,326
10.78,326
10.79,324
10.8,323
10.81,321
10.82,325
10.83,324
10.84,324
10.85,324
10.86,324
10.87,324
10.88,325
10.89,323
10.9,321
10.91,328
10.92,327
10.93,325
10.94,323
10.95,321
10.96,324
10.97,327
10.98,324
10.99,323
11,321
11.01,323
11.02,322
11.03,321
11.04,322
11.05,325
11.06,326
11.07,324
11.08,325
11.09,324
11.1,324
11.11,324
11.12,325
11.13,321
11.14,323
11.15,321
11.16,325
11.17,324
11.18,323
11.19,326
11.2,325
11.21,324
11.22,323
11.23,324
11.24,323
11.25,324
11.26,319
11.27,326
11.28,323
11.29,329
11.3,326
11.31,324
11.32,321
11.33,326
11.34,324
11.35,323
11.36,323
11.37,322
11.38,323
11.39,324
11.4,324
11.41,323
11.42,323
11.43,319
11.44,328
11.45,324
11.46,323
11.47,322
11.48,321
11.49,325
11.5,327
11.51,327
11.52,323
11.53,324
11.54,321
11.55,324
11.56,326
11.57,325
11.58,322
11.59,327
11.6,327
11.61,323
11.62,323
11.63,324
11.64,324
11.65,324
11.66,321
11.67,327
11.68,327
11.69,323
11.7,320
11.71,326
11.72,327
11.73,328
11.74,332
11.75,321
11.76,321
11.77,321
11.78,328
11.79,321
11.8,320
11.81,328
11.82,326
11.83,326
11.84,322
11.85,323
11.86,325
11.87,325
11.88,325
11.89,324
11.9,326
11.91,324
11.92,322
11.93,325
11.94,328
11.95,326
11.96,324
11.97,323
11.98,322
11.99,327
12,324
12.01,321
12.02,324
12.03,324
12.04,326
12.05,323
12.06,325
12.07,328
12.08,326
12.09,322
12.1,326
12.11,328
12.12,327
12.13,325
12.14,323
12.15,324
12.16,323
12.17,324
12.18,324
12.19,324
12.2,324
12.21,325
12.22,326
12.23,325
12.24,324
12.25,324
12.26,324
12.27,323
12.28,324
12.29,324
12.3,324
12.31,325
12.32,323
12.33,324
12.34,325
12.35,324
12.36,324
12.37,323
12.38,324
12.39,324
12.4,324
12.41,323
12.42,324
12.43,324
12.44,324
12.45,323
12.46,323
12.47,323
12.48,323
12.49,321
