0,322
0.01,322
0.02,320
0.03,322
0.04,321
0.05,322
0.06,321
0.07,321
0.08,321
0.09,322
0.1,321
0.11,322
0.12,321
0.13,321
0.14,321
0.15,321
0.16,321
0.17,321
0.18,324
0.19,320
0.2,322
0.21,321
0.22,322
0.23,323
0.24,322
0.25,322
0.26,321
0.27,322
0.28,321
0.29,321
0.3,322
0.31,322
0.32,325
0.33,322
0.34,326
0.35,322
0.36,323
0.37,324
0.38,323
0.39,324
0.4,323
0.41,323
0.42,322
0.43,322
0.44,322
0.45,322
0.46,322
0.47,323
0.48,322
0.49,322
0.5,322
0.51,322
0.52,323
0.53,321
0.54,321
0.55,324
0.56,323
0.57,321
0.58,321
0.59,321
0.6,322
0.61,323
0.62,322
0.63,322
0.64,322
0.65,323
0.66,322
0.67,321
0.68,321
0.69,321
0.7,322
0.71,321
0.72,323
0.73,320
0.74,322
0.75,320
0.76,318
0.77,321
0.78,324
0.79,320
0.8,321
0.81,321
0.82,319
0.83,324
0.84,320
0.85,323
0.86,320
0.87,324
0.88,322
0.89,322
0.9,322
0.91,323
0.92,322
0.93,325
0.94,319
0.95,322
0.96,324
0.97,321
0.98,322
0.99,323
1,320
1.01,323
1.02,325
1.03,321
1.04,321
1.05,322
1.06,323
1.07,325
1.08,319
1.09,322
1.1,323
1.11,321
1.12,323
1.13,318
1.14,323
1.15,322
1.16,322
1.17,320
1.18,324
1.19,322
1.2,323
1.21,322
1.22,320
1.23,323
1.24,324
1.25,321
1.26,322
1.27,321
1.28,321
1.29,320
1.3,318
1.31,320
1.32,321
1.33,318
1.34,322
1.35,321
1.36,319
1.37,323
1.38,325
1.39,321
1.4,320
1.41,319
1.42,324
1.43,315
1.44,324
1.45,324
1.46,323
1.47,323
1.48,325
1.49,322
1.5,323
1.51,322
1.52,321
1.53,322
1.54,322
1.55,324
1.56,323
1.57,325
1.58,321
1.59,321
1.6,320
1.61,322
1.62,323
1.63,323
1.64,322
1.65,323
1.66,321
1.67,325
1.68,320
1.69,321
1.7,321
1.71,318
1.72,327
1.73,325
1.74,320
1.75,323
1.76,323
1.77,323
1.78,319
1.79,322
1.8,324
1.81,321
1.82,321
1.83,324
1.84,325
1.85,321
1.86,322
1.87,326
1.88,321
1.89,323
1.9,322
1.91,324
1.92,325
1.93,321
1.94,320
1.95,321
1.96,325
1.97,319
1.98,323
1.99,318
2,325
2.01,323
2.02,318
2.03,322
2.04,319
2.05,321
2.06,321
2.07,325
2.08,323
2.09,317
2.1,319
2.11,320
2.12,321
2.13,322
2.14,321
2.15,321
2.16,323
2.17,316
2.18,322
2.19,314
2.2,324
2.21,318
2.22,329
2.23,324
2.24,321
2.25,327
2.26,323
2.27,323
2.28,328
2.29,309
2.3,328
2.31,328
2.32,315
2.33,319
2.34,325
2.35,319
2.36,324
2.37,328
2.38,323
2.39,322
2.4,324
2.41,322
2.42,324
2.43,324
2.44,322
2.45,322
2.46,319
2.47,320
2.48,324
2.49,319
2.5,323
2.51,326
2.52,318
2.53,323
2.54,325
2.55,322
2.56,324
2.57,330
2.58,324
2.59,317
2.6,323
2.61,324
2.62,322
2.63,324
2.64,323
2.65,322
2.66,326
2.67,320
2.68,320
2.69,321
2.7,319
2.71,323
2.72,322
2.73,322
2.74,321
2.75,322
2.76,326
2.77,325
2.78,323
2.79,323
2.8,315
2.81,320
2.82,320
2.83,322
2.84,322
2.85,321
2.86,322
2.87,323
2.88,322
2.89,322
2.9,318
2.91,324
2.92,324
2.93,323
2.94,322
2.95,322
2.96,324
2.97,322
2.98,323
2.99,321
3,319
3.01,323
3.02,320
3.03,323
3.04,324
3.05,323
3.06,322
3.07,322
3.08,323
3.09,322
3.1,322
3.11,322
3.12,323
3.13,323
3.14,324
3.15,324
3.16,322
3.17,323
3.18,325
3.19,323
3.2,323
3.21,323
3.22,321
3.23,325
3.24,323
3.25,325
3.26,327
3.27,319
3.28,318
3.29,320
3.3,333
3.31,332
3.32,326
3.33,332
3.34,326
3.35,327
3.36,324
3.37,326
3.38,317
3.39,328
3.4,318
3.41,329
3.42,329
3.43,322
3.44,324
3.45,323
3.46,324
3.47,320
3.48,324
3.49,323
3.5,324
3.51,323
3.52,323
3.53,318
3.54,322
3.55,325
3.56,326
3.57,324
3.58,321
3.59,317
3.6,323
3.61,320
3.62,321
3.63,329
3.64,320
3.65,319
3.66,323
3.67,320
3.68,322
3.69,322
3.7,321
3.71,322
3.72,320
3.73,323
3.74,321
3.75,321
3.76,321
3.77,320
3.78,321
3.79,319
3.8,320
3.81,322
3.82,318
3.83,320
3.84,319
3.85,318
3.86,316
3.87,317
3.88,315
3.89,317
3.9,315
3.91,317
3.92,317
3.93,318
3.94,322
3.95,318
3.96,320
3.97,321
3.98,321
3.99,326
4,325
4.01,326
4.02,328
4.03,331
4.04,339
4.05,353
4.06,356
4.07,350
4.08,344
4.09,342
4.1,337
4.11,336
4.12,337
4.13,336
4.14,333
4.15,334
4.16,331
4.17,332
4.18,331
4.19,329
4.2,331
4.21,329
4.22,328
4.23,329
4.24,329
4.25,328
4.26,327
4.27,328
4.28,329
4.29,328
4.3,328
4.31,329
4.32,329
4.33,329
4.34,329
4.35,329
4.36,329
4.37,329
4.38,329
4.39,329
4.4,329
4.41,329
4.42,332
4.43,333
4.44,332
4.45,330
4.46,329
4.47,330
4.48,329
4.49,327
4.5,323
4.51,325
4.52,324
4.53,318
4.54,330
4.55,322
4.56,323
4.57,324
4.58,326
4.59,319
4.6,323
4.61,319
4.62,323
4.63,323
4.64,328
4.65,325
4.66,321
4.67,326
4.68,325
4.69,325
4.7,326
4.71,326
4.72,327
4.73,327
4.74,326
4.75,328
4.76,326
4.77,327
4.78,330
4.79,328
4.8,329
4.81,327
4.82,334
4.83,329
4.84,332
4.85,335
4.86,337
4.87,336
4.88,338
4.89,347
4.9,372
4.91,382
4.92,371
4.93,359
4.94,355
4.95,349
4.96,345
4.97,340
4.98,340
4.99,334
5,336
5.01,335
5.02,331
5.03,329
5.04,331
5.05,323
5.06,322
5.07,319
5.08,322
5.09,319
5.1,316
5.11,310
5.12,310
5.13,312
5.14,313
5.15,315
5.16,314
5.17,316
5.18,315
5.19,313
5.2,314
5.21,314
5.22,312
5.23,313
5.24,312
5.25,313
5.26,313
5.27,313
5.28,316
5.29,316
5.3,316
5.31,317
5.32,317
5.33,317
5.34,318
5.35,317
5.36,318
5.37,319
5.38,318
5.39,318
5.4,319
5.41,317
5.42,318
5.43,318
5.44,317
5.45,319
5.46,319
5.47,318
5.48,319
5.49,319
5.5,319
5.51,320
5.52,319
5.53,320
5.54,319
5.55,320
5.56,319
5.57,320
5.58,320
5.59,321
5.6,324
5.61,324
5.62,324
5.63,325
5.64,324
5.65,325
5.66,323
5.67,323
5.68,322
5.69,321
5.7,323
5.71,322
5.72,322
5.73,322
5.74,321
5.75,322
5.76,322
5.77,322
5.78,322
5.79,322
5.8,321
5.81,322
5.82,321
5.83,321
5.84,321
5.85,321
5.86,321
5.87,321
5.88,319
5.89,321
5.9,322
5.91,320
5.92,320
5.93,320
5.94,319
5.95,320
5.96,320
5.97,319
5.98,320
5.99,319
6,319
6.01,319
6.02,320
6.03,319
6.04,320
6.05,319
6.06,319
6.07,320
6.08,320
6.09,321
6.1,321
6.11,321
6.12,321
6.13,320
6.14,321
6.15,321
6.16,320
6.17,319
6.18,320
6.19,320
6.2,320
6.21,321
6.22,320
6.23,318
6.24,319
6.25,320
6.26,318
6.27,319
6.28,320
6.29,319
6.3,318
6.31,319
6.32,319
6.33,320
6.34,319
6.35,319
6.36,319
6.37,319
6.38,319
6.39,320
6.4,320
6.41,320
6.42,321
6.43,320
6.44,320
6.45,321
6.46,321
6.47,321
6.48,321
6.49,321
6.5,322
6.51,322
6.52,323
6.53,322
6.54,322
6.55,323
6.56,322
6.57,320
6.58,322
6.59,321
6.6,322
6.61,322
6.62,320
6.63,321
6.64,321
6.65,322
6.66,320
6.67,321
6.68,321
6.69,320
6.7,322
6.71,320
6.72,321
6.73,322
6.74,322
6.75,321
6.76,321
6.77,322
6.78,322
6.79,321
6.8,321
6.81,321
6.82,321
6.83,321
6.84,321
6.85,320
6.86,321
6.87,322
6.88,322
6.89,320
6.9,323
6.91,320
6.92,321
6.93,322
6.94,325
6.95,320
6.96,325
6.97,324
6.98,329
6.99,325
7,322
7.01,322
7.02,322
7.03,324
7.04,320
7.05,315
7.06,324
7.07,323
7.08,321
7.09,323
7.1,326
7.11,322
7.12,320
7.13,320
7.14,320
7.15,323
7.16,321
7.17,323
7.18,322
7.19,319
7.2,319
7.21,319
7.22,320
7.23,319
7.24,319
7.25,319
7.26,319
7.27,320
7.28,320
7.29,320
7.3,320
7.31,320
7.32,321
7.33,321
7.34,321
7.35,321
7.36,321
7.37,317
7.38,322
7.39,320
7.4,320
7.41,322
7.42,321
7.43,321
7.44,321
7.45,321
7.46,321
7.47,321
7.48,322
7.49,322
7.5,320
7.51,322
7.52,321
7.53,319
7.54,320
7.55,321
7.56,320
7.57,321
7.58,321
7.59,321
7.6,320
7.61,320
7.62,321
7.63,320
7.64,320
7.65,320
7.66,320
7.67,320
7.68,320
7.69,319
7.7,320
7.71,319
7.72,321
7.73,320
7.74,319
7.75,320
7.76,319
7.77,321
7.78,320
7.79,320
7.8,321
7.81,321
7.82,321
7.83,321
7.84,321
7.85,321
7.86,321
7.87,322
7.88,322
7.89,322
7.9,322
7.91,322
7.92,323
7.93,323
7.94,323
7.95,323
7.96,323
7.97,324
7.98,324
7.99,321
8,325
8.01,323
8.02,323
8.03,323
8.04,323
8.05,323
8.06,323
8.07,322
8.08,323
8.09,323
8.1,323
8.11,323
8.12,322
8.13,323
8.14,323
8.15,323
8.16,322
8.17,323
8.18,323
8.19,324
8.2,321
8.21,323
8.22,321
8.23,320
8.24,322
8.25,322
8.26,321
8.27,322
8.28,322
8.29,321
8.3,322
8.31,322
8.32,323
8.33,323
8.34,323
8.35,322
8.36,323
8.37,323
8.38,324
8.39,323
8.4,324
8.41,324
8.42,324
8.43,324
8.44,325
8.45,324
8.46,324
8.47,324
8.48,324
8.49,322
8.5,328
8.51,325
8.52,317
8.53,319
8.54,330
8.55,323
8.56,317
8.57,329
8.58,324
8.59,322
8.6,321
8.61,320
8.62,322
8.63,322
8.64,321
8.65,324
8.66,321
8.67,321
8.68,322
8.69,323
8.7,323
8.71,324
8.72,324
8.73,324
8.74,323
8.75,322
8.76,321
8.77,321
8.78,321
8.79,321
8.8,321
8.81,322
8.82,322
8.83,322
8.84,322
8.85,322
8.86,322
8.87,322
8.88,323
8.89,321
8.9,321
8.91,321
8.92,321
8.93,321
8.94,321
8.95,321
8.96,322
8.97,322
8.98,322
8.99,321
9,322
9.01,322
9.02,321
9.03,320
9.04,319
9.05,321
9.06,321
9.07,320
9.08,321
9.09,320
9.1,323
9.11,321
9.12,321
9.13,319
9.14,321
9.15,320
9.16,321
9.17,321
9.18,321
9.19,321
9.2,321
9.21,320
9.22,321
9.23,323
9.24,321
9.25,321
9.26,321
9.27,322
9.28,324
9.29,318
9.3,320
9.31,322
9.32,322
9.33,322
9.34,321
9.35,320
9.36,323
9.37,321
9.38,318
9.39,320
9.4,321
9.41,323
9.42,318
9.43,320
9.44,320
9.45,322
9.46,320
9.47,320
9.48,323
9.49,320
9.5,319
9.51,318
9.52,320
9.53,319
9.54,319
9.55,322
9.56,321
9.57,327
9.58,314
9.59,323
9.6,321
9.61,321
9.62,320
9.63,319
9.64,323
9.65,321
9.66,320
9.67,323
9.68,320
9.69,321
9.7,321
9.71,320
9.72,323
9.73,321
9.74,322
9.75,317
9.76,323
9.77,320
9.78,319
9.79,321
9.8,320
9.81,321
9.82,324
9.83,322
9.84,318
9.85,322
9.86,319
9.87,320
9.88,320
9.89,319
9.9,321
9.91,319
9.92,320
9.93,318
9.94,318
9.95,319
9.96,319
9.97,317
9.98,319
9.99,319
10,316
10.01,319
10.02,320
10.03,317
10.04,317
10.05,317
10.06,316
10.07,318
10.08,316
10.09,318
10.1,318
10.11,317
10.12,317
10.13,316
10.14,320
10.15,317
10.16,319
10.17,318
10.18,318
10.19,317
10.2,320
10.21,319
10.22,315
10.23,318
10.24,320
10.25,320
10.26,319
10.27,320
10.28,319
10.29,318
10.3,318
10.31,319
10.32,317
10.33,314
10.34,318
10.35,315
10.36,319
10.37,312
10.38,321
10.39,318
10.4,319
10.41,320
10.42,327
10.43,320
10.44,315
10.45,320
10.46,320
10.47,321
10.48,321
10.49,320
10.5,321
10.51,320
10.52,318
10.53,322
10.54,319
10.55,320
10.56,315
10.57,324
10.58,319
10.59,319
10.6,318
10.61,324
10.62,321
10.63,320
10.64,310
10.65,325
10.66,322
10.67,320
10.68,327
10.69,321
10.7,321
10.71,319
10.72,307
10.73,324
10.74,309
10.75,325
10.76,319
10.77,319
10.78,320
10.79,319
10.8,320
10.81,321
10.82,319
10.83,318
10.84,322
10.85,320
10.86,320
10.87,320
10.88,319
10.89,319
10.9,319
10.91,318
10.92,321
10.93,320
10.94,322
10.95,322
10.96,321
10.97,317
10.98,317
10.99,321
11,315
11.01,322
11.02,317
11.03,323
11.04,318
11.05,323
11.06,320
11.07,317
11.08,320
11.09,319
11.1,322
11.11,320
11.12,319
11.13,321
11.14,323
11.15,323
11.16,321
11.17,317
11.18,319
11.19,318
11.2,320
11.21,321
11.22,321
11.23,321
11.24,326
11.25,317
11.26,319
11.27,318
11.28,316
11.29,323
11.3,322
11.31,312
11.32,326
11.33,316
11.34,321
11.35,323
11.36,321
11.37,321
11.38,324
11.39,318
11.4,326
11.41,321
11.42,320
11.43,323
11.44,325
11.45,323
11.46,323
11.47,314
11.48,323
11.49,319
11.5,321
11.51,320
11.52,318
11.53,320
11.54,322
11.55,318
11.56,319
11.57,320
11.58,320
11.59,321
11.6,319
11.61,320
11.62,316
11.63,321
11.64,318
11.65,319
11.66,321
11.67,319
11.68,320
11.69,320
11.7,322
11.71,322
11.72,321
11.73,320
11.74,321
11.75,320
11.76,323
11.77,321
11.78,320
11.79,320
11.8,320
11.81,321
11.82,322
11.83,323
11.84,323
11.85,320
11.86,320
11.87,321
11.88,320
11.89,321
11.9,321
11.91,321
11.92,322
11.93,322
11.94,322
11.95,322
11.96,322
11.97,323
11.98,322
11.99,323
12,322
12.01,320
12.02,321
12.03,324
12.04,324
12.05,322
12.06,324
12.07,326
12.08,326
12.09,317
12.1,332
12.11,319
12.12,326
12.13,324
12.14,322
12.15,327
12.16,326
12.17,321
12.18,322
12.19,320
12.2,320
12.21,321
12.22,314
12.23,322
12.24,319
12.25,329
12.26,316
12.27,322
12.28,332
12.29,358
12.3,326
12.31,331
12.32,321
12.33,323
12.34,322
12.35,319
12.36,325
12.37,322
12.38,322
12.39,323
12.4,322
12.41,326
12.42,319
12.43,325
12.44,328
12.45,315
12.46,322
12.47,321
12.48,322
12.49,320
12.5,323
12.51,326
12.52,320
12.53,319
12.54,320
12.55,319
12.56,334
12.57,321
12.58,322
12.59,319
12.6,320
12.61,322
12.62,321
12.63,321
12.64,323
12.65,323
12.66,320
12.67,324
12.68,323
12.69,324
12.7,323
12.71,321
12.72,322
12.73,320
12.74,318
12.75,321
12.76,319
12.77,318
12.78,318
12.79,319
12.8,316
12.81,323
12.82,320
12.83,315
12.84,328
12.85,318
12.86,329
12.87,321
12.88,323
12.89,317
12.9,324
12.91,320
12.92,319
12.93,325
12.94,323
12.95,324
12.96,323
12.97,319
12.98,322
12.99,323
13,329
13.01,322
13.02,325
13.03,324
13.04,322
13.05,323
13.06,321
13.07,321
13.08,319
13.09,319
13.1,323
13.11,318
13.12,312
13.13,317
13.14,321
13.15,318
13.16,318
13.17,318
13.18,321
13.19,320
13.2,323
13.21,322
13.22,318
13.23,321
13.24,319
13.25,319
13.26,321
13.27,320
13.28,323
13.29,321
13.3,320
13.31,324
13.32,323
13.33,324
13.34,325
13.35,320
13.36,321
13.37,324
13.38,321
13.39,323
13.4,321
13.41,322
13.42,322
13.43,318
13.44,317
13.45,316
13.46,314
13.47,314
13.48,315
13.49,316
13.5,317
13.51,317
13.52,318
13.53,316
13.54,319
13.55,319
13.56,319
13.57,318
13.58,319
13.59,317
13.6,318
13.61,319
13.62,319
13.63,318
13.64,319
13.65,318
13.66,318
13.67,319
13.68,319
13.69,318
13.7,320
13.71,316
13.72,321
13.73,316
13.74,323
13.75,320
13.76,321
13.77,317
13.78,324
13.79,320
13.8,318
13.81,318
13.82,320
13.83,306
13.84,320
13.85,323
13.86,315
13.87,319
13.88,320
13.89,317
13.9,316
13.91,322
13.92,320
13.93,330
13.94,319
13.95,318
13.96,322
13.97,330
13.98,326
13.99,324
14,322
14.01,323
14.02,318
14.03,323
14.04,326
14.05,327
14.06,320
14.07,323
14.08,321
14.09,320
14.1,318
14.11,320
14.12,320
14.13,320
14.14,321
14.15,323
14.16,323
14.17,320
14.18,320
14.19,322
14.2,320
14.21,322
14.22,321
14.23,324
14.24,320
14.25,321
14.26,321
14.27,320
14.28,322
14.29,321
14.3,319
14.31,318
14.32,320
14.33,322
14.34,319
14.35,319
14.36,321
14.37,319
14.38,321
14.39,318
14.4,319
14.41,321
14.42,324
14.43,320
14.44,320
14.45,322
14.46,319
14.47,321
14.48,322
14.49,322
14.5,321
14.51,320
14.52,321
14.53,321
14.54,321
14.55,320
14.56,321
14.57,321
14.58,321
14.59,321
14.6,321
14.61,321
14.62,319
14.63,319
14.64,319
14.65,323
14.66,320
14.67,321
14.68,321
14.69,319
14.7,320
14.71,326
14.72,320
14.73,321
14.74,322
14.75,321
14.76,322
14.77,324
14.78,322
14.79,324
14.8,321
14.81,322
14.82,320
14.83,320
14.84,319
14.85,319
14.86,320
14.87,321
14.88,322
14.89,321
14.9,319
14.91,321
14.92,318
14.93,320
14.94,317
14.95,318
14.96,320
14.97,316
14.98,313
14.99,324
15,319
15.01,317
15.02,313
15.03,317
15.04,320
15.05,320
15.06,320
15.07,320
15.08,324
15.09,316
15.1,320
15.11,319
15.12,320
15.13,320
15.14,318
15.15,320
15.16,319
15.17,320
15.18,321
15.19,321
15.2,321
15.21,321
15.22,320
15.23,322
15.24,321
15.25,321
15.26,323
15.27,321
15.28,321
15.29,321
15.3,321
15.31,318
15.32,319
15.33,317
15.34,318
15.35,319
15.36,319
15.37,319
15.38,319
15.39,318
15.4,319
15.41,320
15.42,319
15.43,320
15.44,320
15.45,320
15.46,320
15.47,320
15.48,320
15.49,321
15.5,320
15.51,313
15.52,328
15.53,319
15.54,321
15.55,316
15.56,326
15.57,318
15.58,321
15.59,320
15.6,321
15.61,320
15.62,319
15.63,321
15.64,325
15.65,323
15.66,317
15.67,322
15.68,323
15.69,321
15.7,323
15.71,321
15.72,320
15.73,322
15.74,321
15.75,321
15.76,322
15.77,321
15.78,321
15.79,322
15.8,323
15.81,321
15.82,318
15.83,324
15.84,320
15.85,321
15.86,322
15.87,320
15.88,321
15.89,321
15.9,323
15.91,319
15.92,325
15.93,323
15.94,324
15.95,322
15.96,325
15.97,322
15.98,321
15.99,325
16,321
16.01,320
16.02,322
16.03,317
16.04,319
16.05,321
16.06,319
16.07,321
16.08,319
16.09,319
16.1,320
16.11,319
16.12,320
16.13,320
16.14,318
16.15,319
16.16,320
16.17,316
16.18,324
16.19,320
16.2,321
16.21,320
16.22,321
16.23,321
16.24,321
16.25,322
16.26,323
16.27,323
16.28,321
16.29,322
16.3,321
16.31,323
16.32,321
16.33,322
16.34,322
16.35,320
16.36,322
16.37,322
16.38,322
16.39,321
16.4,320
16.41,321
16.42,321
16.43,321
16.44,321
16.45,320
16.46,320
16.47,321
16.48,320
16.49,321
16.5,321
16.51,321
16.52,322
16.53,321
16.54,323
16.55,322
16.56,322
16.57,321
16.58,322
16.59,319
16.6,322
16.61,322
16.62,322
16.63,323
16.64,321
16.65,322
16.66,322
16.67,323
16.68,321
16.69,321
16.7,320
16.71,321
16.72,320
16.73,319
16.74,323
16.75,322
16.76,321
16.77,320
16.78,321
16.79,319
16.8,326
16.81,323
16.82,318
16.83,326
16.84,321
16.85,321
16.86,321
16.87,321
16.88,315
16.89,329
16.9,316
16.91,323
16.92,322
16.93,328
16.94,322
16.95,315
16.96,325
16.97,320
16.98,318
16.99,323
17,324
17.01,322
17.02,317
17.03,321
17.04,320
17.05,322
17.06,317
17.07,323
17.08,321
17.09,323
17.1,321
17.11,322
17.12,319
17.13,319
17.14,322
17.15,319
17.16,320
17.17,319
17.18,320
17.19,320
17.2,320
17.21,320
17.22,320
17.23,321
17.24,321
17.25,319
17.26,318
17.27,319
17.28,320
17.29,320
17.3,321
17.31,319
17.32,321
17.33,321
17.34,319
17.35,320
17.36,320
17.37,320
17.38,320
17.39,320
17.4,319
17.41,320
17.42,321
17.43,319
17.44,322
17.45,321
17.46,320
17.47,318
17.48,320
17.49,325
17.5,320
17.51,328
17.52,321
17.53,325
17.54,321
17.55,316
17.56,325
17.57,316
17.58,326
17.59,320
17.6,318
17.61,320
17.62,323
17.63,327
17.64,317
17.65,322
17.66,319
17.67,324
17.68,319
17.69,318
17.7,323
17.71,321
17.72,321
17.73,318
17.74,326
17.75,321
17.76,322
17.77,319
17.78,325
17.79,318
17.8,322
17.81,320
17.82,331
17.83,319
17.84,326
17.85,322
17.86,322
17.87,321
17.88,323
17.89,321
17.9,320
17.91,324
17.92,322
17.93,323
17.94,321
17.95,323
17.96,320
17.97,324
17.98,320
17.99,323
18,322
18.01,319
18.02,320
18.03,316
18.04,320
18.05,322
18.06,319
18.07,319
18.08,319
18.09,319
18.1,320
18.11,320
18.12,320
18.13,320
18.14,320
18.15,321
18.16,319
18.17,322
18.18,318
18.19,322
18.2,320
18.21,320
18.22,320
18.23,321
18.24,322
18.25,322
18.26,323
18.27,321
18.28,323
18.29,321
18.3,321
18.31,324
18.32,322
18.33,321
18.34,323
18.35,322
18.36,323
18.37,322
18.38,320
18.39,323
18.4,322
18.41,321
18.42,322
18.43,321
18.44,322
18.45,320
18.46,322
18.47,321
18.48,323
18.49,320
18.5,322
18.51,321
18.52,320
18.53,321
18.54,319
18.55,321
18.56,320
18.57,320
18.58,321
18.59,323
18.6,320
18.61,320
18.62,321
18.63,318
18.64,322
18.65,321
18.66,321
18.67,320
18.68,321
18.69,322
18.7,320
18.71,320
18.72,322
18.73,323
18.74,321
18.75,322
18.76,319
18.77,322
18.78,320
18.79,321
18.8,322
18.81,322
18.82,324
18.83,319
18.84,324
18.85,322
18.86,319
18.87,321
18.88,322
18.89,322
18.9,324
18.91,321
18.92,322
18.93,322
18.94,317
18.95,325
18.96,322
18.97,318
18.98,322
18.99,318
19,322
19.01,322
19.02,320
19.03,322
19.04,320
19.05,323
19.06,324
19.07,323
19.08,319
19.09,321
19.1,323
19.11,323
19.12,321
19.13,322
19.14,320
19.15,321
19.16,319
19.17,320
19.18,320
19.19,320
19.2,320
19.21,321
19.22,320
19.23,317
19.24,322
19.25,321
19.26,321
19.27,320
19.28,321
19.29,321
19.3,320
19.31,321
19.32,321
19.33,320
19.34,321
19.35,320
19.36,322
19.37,320
19.38,322
19.39,320
19.4,327
19.41,325
19.42,317
19.43,323
19.44,321
19.45,321
19.46,317
19.47,322
19.48,321
19.49,319
19.5,320
19.51,319
19.52,320
19.53,320
19.54,320
19.55,320
19.56,319
19.57,319
19.58,320
19.59,318
19.6,319
19.61,318
19.62,318
19.63,319
19.64,318
19.65,320
19.66,318
19.67,321
19.68,320
19.69,321
19.7,318
19.71,318
19.72,319
19.73,318
19.74,319
19.75,315
19.76,325
19.77,314
19.78,325
19.79,319
19.8,316
19.81,321
19.82,323
19.83,319
19.84,327
19.85,326
19.86,322
19.87,320
19.88,317
19.89,320
19.9,325
19.91,319
19.92,320
19.93,325
19.94,317
19.95,320
19.96,327
19.97,318
19.98,320
19.99,317
20,318
20.01,321
20.02,321
20.03,309
20.04,336
20.05,325
20.06,323
20.07,319
20.08,316
20.09,327
20.1,320
20.11,314
20.12,329
20.13,315
20.14,324
20.15,323
20.16,326
20.17,321
20.18,316
20.19,321
20.2,319
20.21,321
20.22,320
20.23,317
20.24,323
20.25,305
20.26,314
20.27,315
20.28,319
20.29,316
20.3,320
20.31,321
20.32,321
20.33,322
20.34,321
20.35,320
20.36,322
20.37,319
20.38,322
20.39,323
20.4,321
20.41,322
20.42,321
20.43,325
20.44,323
20.45,322
20.46,318
20.47,323
20.48,320
20.49,320
20.5,321
20.51,325
20.52,322
20.53,322
20.54,322
20.55,320
20.56,321
20.57,319
20.58,321
20.59,319
20.6,321
20.61,320
20.62,321
20.63,319
20.64,319
20.65,323
20.66,317
20.67,324
20.68,318
20.69,318
20.7,324
20.71,321
20.72,320
20.73,319
20.74,322
20.75,321
20.76,320
20.77,322
20.78,322
20.79,323
20.8,322
20.81,321
20.82,322
20.83,323
20.84,322
20.85,323
20.86,320
20.87,323
20.88,322
20.89,323
20.9,322
20.91,323
20.92,322
20.93,321
20.94,322
20.95,323
20.96,324
20.97,322
20.98,319
20.99,322
21,321
21.01,323
21.02,317
21.03,323
21.04,320
21.05,320
21.06,321
21.07,312
21.08,323
21.09,320
21.1,322
21.11,323
21.12,322
21.13,322
21.14,322
21.15,322
21.16,322
21.17,322
21.18,321
21.19,323
21.2,322
21.21,320
21.22,322
21.23,321
21.24,320
21.25,321
21.26,319
21.27,321
21.28,322
21.29,321
21.3,319
21.31,319
21.32,326
21.33,320
21.34,320
21.35,321
21.36,320
21.37,320
21.38,320
21.39,320
21.4,322
21.41,321
21.42,322
21.43,321
21.44,319
21.45,322
21.46,320
21.47,320
21.48,321
21.49,321
21.5,321
21.51,321
21.52,322
21.53,320
21.54,320
21.55,322
21.56,321
21.57,321
21.58,320
21.59,318
21.6,321
21.61,321
21.62,320
21.63,318
21.64,321
21.65,321
21.66,320
21.67,325
21.68,322
21.69,324
21.7,320
21.71,324
21.72,317
21.73,322
21.74,320
21.75,321
21.76,326
21.77,323
21.78,323
21.79,320
21.8,321
21.81,326
21.82,325
21.83,323
21.84,319
21.85,320
21.86,315
21.87,325
21.88,315
21.89,326
21.9,328
21.91,324
21.92,324
21.93,318
21.94,325
21.95,321
21.96,325
21.97,317
21.98,319
21.99,320
22,322
22.01,319
22.02,318
22.03,319
22.04,312
22.05,317
22.06,326
22.07,326
22.08,321
22.09,319
22.1,326
22.11,323
22.12,327
22.13,320
22.14,315
22.15,316
22.16,325
22.17,323
22.18,321
22.19,316
22.2,320
22.21,323
22.22,319
22.23,319
22.24,319
22.25,319
22.26,323
22.27,320
22.28,320
22.29,321
22.3,320
22.31,320
22.32,321
22.33,320
22.34,320
22.35,320
22.36,320
22.37,320
22.38,320
22.39,320
22.4,320
22.41,320
22.42,321
22.43,320
22.44,320
22.45,321
22.46,319
22.47,321
22.48,320
22.49,320
22.5,320
22.51,319
22.52,321
22.53,321
22.54,319
22.55,320
22.56,320
22.57,319
22.58,321
22.59,321
22.6,320
22.61,321
22.62,323
22.63,323
22.64,320
22.65,322
22.66,322
22.67,322
22.68,321
22.69,321
22.7,321
22.71,322
22.72,321
22.73,321
22.74,322
22.75,322
22.76,321
22.77,322
22.78,322
22.79,320
22.8,322
22.81,322
22.82,321
22.83,319
22.84,320
22.85,324
22.86,321
22.87,322
22.88,321
22.89,323
22.9,323
22.91,319
22.92,319
22.93,321
22.94,322
22.95,322
22.96,322
22.97,322
22.98,322
22.99,321
23,323
23.01,321
23.02,321
23.03,321
23.04,321
23.05,321
23.06,320
23.07,321
23.08,321
23.09,320
23.1,320
23.11,320
23.12,318
23.13,320
23.14,319
23.15,320
23.16,317
23.17,324
23.18,320
23.19,318
23.2,317
23.21,323
23.22,321
23.23,319
23.24,319
23.25,327
23.26,318
23.27,322
23.28,318
23.29,321
23.3,321
23.31,319
23.32,318
23.33,322
23.34,321
23.35,321
23.36,322
23.37,321
23.38,321
23.39,322
23.4,322
23.41,321
23.42,321
23.43,320
23.44,316
23.45,321
23.46,323
23.47,320
23.48,318
23.49,321
23.5,319
23.51,319
23.52,318
23.53,321
23.54,319
23.55,321
23.56,319
23.57,328
23.58,317
23.59,323
23.6,320
23.61,323
23.62,320
23.63,316
23.64,328
23.65,319
23.66,321
23.67,316
23.68,318
23.69,317
23.7,319
23.71,327
23.72,321
23.73,319
23.74,326
23.75,321
23.76,318
23.77,329
23.78,332
23.79,310
23.8,325
23.81,316
23.82,327
23.83,316
23.84,319
23.85,321
23.86,323
23.87,321
23.88,321
23.89,316
23.9,330
23.91,317
23.92,310
23.93,326
23.94,319
23.95,322
23.96,311
23.97,330
23.98,319
23.99,317
24,323
24.01,318
24.02,321
24.03,320
24.04,321
24.05,328
24.06,318
24.07,322
24.08,321
24.09,320
24.1,320
24.11,322
24.12,319
24.13,320
24.14,321
24.15,321
24.16,320
24.17,321
24.18,320
24.19,320
24.2,321
24.21,321
24.22,322
24.23,322
24.24,322
24.25,322
24.26,321
24.27,321
24.28,321
24.29,320
24.3,322
24.31,320
24.32,321
24.33,319
24.34,323
24.35,323
24.36,321
24.37,324
24.38,320
24.39,321
24.4,322
24.41,318
24.42,319
24.43,323
24.44,320
24.45,321
24.46,321
24.47,322
24.48,324
24.49,323
24.5,322
24.51,322
24.52,324
24.53,322
24.54,321
24.55,324
24.56,322
24.57,322
24.58,321
24.59,323
24.6,319
24.61,322
24.62,322
24.63,322
24.64,323
24.65,321
24.66,321
24.67,317
24.68,320
24.69,324
24.7,322
24.71,319
24.72,321
24.73,324
24.74,321
24.75,321
24.76,324
24.77,325
24.78,322
24.79,322
24.8,322
24.81,320
24.82,321
24.83,316
24.84,325
24.85,317
24.86,324
24.87,321
24.88,319
24.89,319
24.9,320
24.91,320
24.92,317
24.93,319
24.94,310
24.95,325
24.96,322
24.97,319
24.98,320
24.99,321
25,320
25.01,322
25.02,321
25.03,321
25.04,321
25.05,320
25.06,320
25.07,321
25.08,320
25.09,321
25.1,320
25.11,320
25.12,320
25.13,321
25.14,321
25.15,320
25.16,321
25.17,320
25.18,321
25.19,321
25.2,321
25.21,321
25.22,320
25.23,319
25.24,324
25.25,321
25.26,322
25.27,321
25.28,322
25.29,322
25.3,321
25.31,321
25.32,321
25.33,321
25.34,322
25.35,322
25.36,321
25.37,319
25.38,319
25.39,319
25.4,320
25.41,321
25.42,322
25.43,322
25.44,321
25.45,321
25.46,321
25.47,321
25.48,320
25.49,320
25.5,320
25.51,320
25.52,320
25.53,319
25.54,320
25.55,319
25.56,321
25.57,320
25.58,320
25.59,320
25.6,320
25.61,320
25.62,321
25.63,321
25.64,321
25.65,322
25.66,321
25.67,321
25.68,321
25.69,321
25.7,321
25.71,321
25.72,322
25.73,321
25.74,322
25.75,321
25.76,321
25.77,321
25.78,321
25.79,321
25.8,321
25.81,320
25.82,321
25.83,320
25.84,320
25.85,321
25.86,321
25.87,321
25.88,321
25.89,321
25.9,322
25.91,322
25.92,321
25.93,321
25.94,321
25.95,322
25.96,321
25.97,321
25.98,322
25.99,322
26,321
26.01,319
26.02,321
26.03,320
26.04,322
26.05,321
26.06,322
26.07,320
26.08,321
26.09,320
26.1,320
26.11,320
26.12,320
26.13,321
26.14,319
26.15,319
26.16,320
26.17,320
26.18,320
26.19,320
26.2,314
26.21,332
26.22,322
26.23,318
26.24,321
26.25,320
26.26,320
26.27,321
26.28,319
26.29,323
26.3,316
26.31,326
26.32,320
26.33,320
26.34,320
26.35,320
26.36,320
26.37,321
26.38,321
26.39,321
26.4,321
26.41,321
26.42,321
26.43,322
26.44,319
26.45,320
26.46,320
26.47,321
26.48,319
26.49,322
26.5,320
26.51,322
26.52,321
26.53,321
26.54,322
26.55,322
26.56,321
26.57,321
26.58,322
26.59,322
26.6,323
26.61,321
26.62,320
26.63,320
26.64,321
26.65,322
26.66,322
26.67,320
26.68,321
26.69,319
26.7,323
26.71,321
26.72,322
26.73,319
26.74,322
26.75,323
26.76,319
26.77,321
26.78,322
26.79,321
26.8,319
26.81,325
26.82,321
26.83,318
26.84,322
26.85,320
26.86,319
26.87,324
26.88,321
26.89,320
26.9,322
26.91,321
26.92,323
26.93,319
26.94,321
26.95,323
26.96,319
26.97,322
26.98,322
26.99,321
27,321
27.01,321
27.02,321
27.03,322
27.04,321
27.05,323
27.06,321
27.07,320
27.08,321
27.09,321
27.1,321
27.11,321
27.12,321
27.13,320
27.14,321
27.15,321
27.16,320
27.17,320
27.18,321
27.19,320
27.2,320
27.21,321
27.22,321
27.23,322
27.24,321
27.25,321
27.26,320
27.27,319
27.28,320
27.29,321
27.3,321
27.31,321
27.32,321
27.33,320
27.34,321
27.35,320
27.36,320
27.37,320
27.38,321
27.39,321
27.4,321
27.41,321
27.42,321
27.43,320
27.44,320
27.45,320
27.46,320
27.47,320
27.48,321
27.49,322
27.5,323
27.51,321
27.52,321
27.53,321
27.54,322
27.55,322
27.56,322
27.57,321
27.58,321
27.59,321
27.6,321
27.61,321
27.62,320
27.63,319
27.64,320
27.65,318
27.66,318
27.67,318
27.68,318
27.69,318
27.7,318
27.71,318
27.72,318
27.73,319
27.74,320
27.75,320
27.76,320
27.77,320
27.78,320
27.79,321
27.8,322
27.81,321
27.82,323
27.83,321
27.84,321
27.85,321
27.86,322
27.87,322
27.88,321
27.89,321
27.9,322
27.91,324
27.92,326
27.93,324
27.94,322
27.95,324
27.96,323
27.97,321
27.98,322
27.99,321
28,321
28.01,320
28.02,320
28.03,319
28.04,322
28.05,320
28.06,318
28.07,320
28.08,321
28.09,321
28.1,321
28.11,321
28.12,321
28.13,322
28.14,320
28.15,321
28.16,322
28.17,322
28.18,321
28.19,322
28.2,320
28.21,322
28.22,321
28.23,319
28.24,321
28.25,319
28.26,321
28.27,322
28.28,322
28.29,323
28.3,321
28.31,320
28.32,322
28.33,320
28.34,320
28.35,319
28.36,320
28.37,321
28.38,321
28.39,322
28.4,322
28.41,322
28.42,321
28.43,322
28.44,320
28.45,323
28.46,322
28.47,320
28.48,320
28.49,322
28.5,322
28.51,321
28.52,324
28.53,322
28.54,321
28.55,321
28.56,321
28.57,321
28.58,321
28.59,322
28.6,321
28.61,320
28.62,324
28.63,323
28.64,322
28.65,322
28.66,322
28.67,321
28.68,321
28.69,323
28.7,323
28.71,320
28.72,320
28.73,319
28.74,320
28.75,318
28.76,322
28.77,319
28.78,323
28.79,324
28.8,322
28.81,323
28.82,322
28.83,320
28.84,322
28.85,321
28.86,322
28.87,322
28.88,322
28.89,320
28.9,321
28.91,321
28.92,320
28.93,323
28.94,322
28.95,321
28.96,320
28.97,320
28.98,321
28.99,320
29,320
29.01,320
29.02,320
29.03,321
29.04,322
29.05,321
29.06,321
29.07,322
29.08,321
29.09,322
29.1,322
29.11,319
29.12,322
29.13,322
29.14,320
29.15,322
29.16,321
29.17,321
29.18,320
29.19,320
29.2,321
29.21,322
29.22,323
29.23,321
29.24,321
29.25,321
29.26,320
29.27,321
29.28,321
29.29,321
29.3,321
29.31,321
29.32,322
29.33,321
29.34,320
29.35,320
29.36,320
29.37,319
29.38,320
29.39,320
29.4,320
29.41,320
29.42,322
29.43,322
29.44,321
29.45,321
29.46,321
29.47,321
29.48,320
29.49,321
29.5,321
29.51,321
29.52,321
29.53,321
29.54,320
29.55,321
29.56,321
29.57,321
29.58,320
29.59,321
29.6,320
29.61,320
29.62,320
29.63,320
29.64,320
29.65,320
29.66,320
29.67,320
29.68,320
29.69,319
29.7,320
29.71,320
29.72,320
29.73,318
29.74,320
29.75,320
29.76,320
29.77,320
29.78,321
29.79,320
29.8,320
29.81,322
29.82,319
29.83,320
29.84,321
29.85,321
29.86,319
29.87,319
29.88,321
29.89,324
29.9,325
29.91,322
29.92,321
29.93,324
29.94,323
29.95,320
29.96,320
29.97,321
29.98,322
29.99,322
30,321
30.01,319
30.02,321
30.03,319
30.04,321
30.05,322
30.06,320
30.07,321
30.08,321
30.09,321
30.1,320
30.11,321
30.12,320
30.13,319
30.14,323
30.15,319
30.16,322
30.17,319
30.18,322
30.19,319
30.2,321
30.21,324
30.22,320
30.23,318
30.24,319
30.25,318
30.26,325
30.27,321
30.28,319
30.29,319
30.3,323
30.31,323
30.32,320
30.33,323
30.34,323
30.35,319
30.36,320
30.37,331
30.38,324
30.39,323
30.4,319
30.41,323
30.42,321
30.43,321
30.44,324
30.45,322
30.46,323
30.47,322
30.48,323
30.49,323
30.5,323
30.51,319
30.52,324
30.53,322
30.54,323
30.55,322
30.56,324
30.57,318
30.58,324
30.59,324
30.6,321
30.61,323
30.62,321
30.63,321
30.64,323
30.65,320
30.66,324
30.67,324
30.68,322
30.69,320
30.7,323
30.71,322
30.72,319
30.73,323
30.74,323
30.75,318
30.76,324
30.77,325
30.78,321
30.79,322
30.8,323
30.81,321
30.82,319
30.83,325
30.84,319
30.85,325
30.86,321
30.87,319
30.88,319
30.89,319
30.9,320
30.91,322
30.92,323
30.93,321
30.94,323
30.95,322
30.96,320
30.97,321
30.98,322
30.99,321
31,321
31.01,322
31.02,321
31.03,321
31.04,321
31.05,321
31.06,322
31.07,322
31.08,322
31.09,322
31.1,321
31.11,321
31.12,321
31.13,321
31.14,321
31.15,321
31.16,322
31.17,322
31.18,322
31.19,323
31.2,322
31.21,321
31.22,322
31.23,322
31.24,322
31.25,322
31.26,321
31.27,321
31.28,321
31.29,320
31.3,323
31.31,321
31.32,321
31.33,320
31.34,320
31.35,325
31.36,320
31.37,320
31.38,322
31.39,323
31.4,322
31.41,320
31.42,318
31.43,317
31.44,317
31.45,319
31.46,319
31.47,319
31.48,320
31.49,320
31.5,322
31.51,322
31.52,324
31.53,320
31.54,319
31.55,319
31.56,319
31.57,319
31.58,319
31.59,319
31.6,319
31.61,321
31.62,322
31.63,321
31.64,321
31.65,319
31.66,319
31.67,319
31.68,319
31.69,319
31.7,321
31.71,322
31.72,323
31.73,322
31.74,319
31.75,320
31.76,333
31.77,328
31.78,319
31.79,320
31.8,321
31.81,321
31.82,320
31.83,319
31.84,322
31.85,321
31.86,323
31.87,322
31.88,322
31.89,324
31.9,323
31.91,322
31.92,320
31.93,318
31.94,318
31.95,317
31.96,317
31.97,320
31.98,316
31.99,315
32,321
32.01,319
32.02,326
32.03,317
32.04,323
32.05,320
32.06,324
32.07,320
32.08,323
32.09,323
32.1,319
32.11,321
32.12,324
32.13,321
32.14,320
32.15,315
32.16,316
32.17,318
32.18,320
32.19,322
32.2,322
32.21,323
32.22,321
32.23,322
32.24,322
32.25,322
32.26,321
32.27,320
32.28,321
32.29,322
32.3,322
32.31,321
32.32,321
32.33,320
32.34,321
32.35,322
32.36,322
32.37,323
32.38,322
32.39,323
32.4,322
32.41,322
32.42,319
32.43,321
32.44,319
32.45,323
32.46,321
32.47,322
32.48,322
32.49,322
32.5,322
32.51,323
32.52,321
32.53,321
32.54,320
32.55,320
32.56,321
32.57,319
32.58,320
32.59,321
32.6,321
32.61,322
32.62,322
32.63,323
32.64,322
32.65,322
32.66,321
32.67,322
32.68,321
32.69,322
32.7,322
32.71,322
32.72,322
32.73,321
32.74,322
32.75,321
32.76,321
32.77,321
32.78,322
32.79,321
32.8,322
32.81,320
32.82,322
32.83,322
32.84,322
32.85,322
32.86,323
32.87,324
32.88,322
32.89,322
32.9,322
32.91,322
32.92,321
32.93,323
32.94,320
32.95,321
32.96,322
32.97,321
32.98,321
32.99,319
33,323
33.01,321
33.02,322
33.03,321
33.04,320
33.05,322
33.06,321
33.07,322
33.08,321
33.09,321
33.1,321
33.11,323
33.12,320
33.13,321
33.14,320
33.15,320
33.16,320
33.17,320
33.18,322
33.19,322
33.2,320
33.21,321
33.22,321
33.23,322
33.24,322
33.25,323
33.26,321
33.27,321
33.28,322
33.29,321
33.3,320
33.31,322
33.32,321
33.33,321
33.34,321
33.35,321
33.36,321
33.37,322
33.38,321
33.39,321
33.4,321
33.41,321
33.42,321
33.43,320
33.44,320
33.45,320
33.46,322
33.47,321
33.48,320
33.49,321
33.5,320
33.51,321
33.52,320
33.53,322
33.54,322
33.55,321
33.56,320
33.57,322
33.58,321
33.59,320
33.6,321
33.61,322
33.62,322
33.63,321
33.64,320
33.65,321
33.66,325
33.67,321
33.68,321
33.69,320
33.7,322
33.71,325
33.72,322
33.73,319
33.74,322
33.75,320
33.76,326
33.77,320
33.78,322
33.79,327
33.8,320
33.81,321
33.82,322
33.83,321
33.84,321
33.85,321
33.86,321
33.87,321
33.88,320
33.89,320
33.9,321
33.91,322
33.92,321
33.93,321
33.94,320
33.95,321
33.96,319
33.97,323
33.98,321
33.99,320
34,319
34.01,319
34.02,319
34.03,324
34.04,320
34.05,318
34.06,321
34.07,333
34.08,323
34.09,319
34.1,319
34.11,320
34.12,320
34.13,320
34.14,320
34.15,320
34.16,320
34.17,319
34.18,320
34.19,321
34.2,321
34.21,321
34.22,321
34.23,321
34.24,320
34.25,320
34.26,321
34.27,320
34.28,321
34.29,321
34.3,321
34.31,321
34.32,321
34.33,321
34.34,321
34.35,321
34.36,321
34.37,321
34.38,321
34.39,321
34.4,321
34.41,321
34.42,321
34.43,321
34.44,321
34.45,321
34.46,320
34.47,321
34.48,321
34.49,321
34.5,321
34.51,321
34.52,320
34.53,321
34.54,320
34.55,322
34.56,321
34.57,322
34.58,322
34.59,322
34.6,321
34.61,322
34.62,321
34.63,321
34.64,321
34.65,321
34.66,321
34.67,321
34.68,320
34.69,321
34.7,323
34.71,322
34.72,321
34.73,320
34.74,321
34.75,321
34.76,321
34.77,321
34.78,320
34.79,321
34.8,321
34.81,320
34.82,322
34.83,321
34.84,321
34.85,321
34.86,322
34.87,320
34.88,321
34.89,322
34.9,321
34.91,321
34.92,321
34.93,322
34.94,321
34.95,323
34.96,321
34.97,322
34.98,322
34.99,322
35,320
35.01,321
35.02,322
35.03,321
35.04,321
35.05,324
35.06,321
35.07,321
35.08,321
35.09,322
35.1,320
35.11,320
35.12,320
35.13,320
35.14,321
35.15,321
35.16,321
35.17,322
35.18,321
35.19,322
35.2,322
35.21,322
35.22,321
35.23,320
35.24,322
35.25,321
35.26,321
35.27,320
35.28,322
35.29,322
35.3,320
35.31,320
35.32,319
35.33,320
35.34,321
35.35,322
35.36,322
35.37,321
35.38,321
35.39,321
35.4,321
35.41,322
35.42,323
35.43,322
35.44,321
35.45,321
35.46,322
35.47,322
35.48,321
35.49,322
35.5,321
35.51,322
35.52,323
35.53,320
35.54,322
35.55,321
35.56,321
35.57,321
35.58,321
35.59,322
35.6,320
35.61,321
35.62,321
35.63,321
35.64,320
35.65,321
35.66,321
35.67,321
35.68,321
35.69,320
35.7,321
35.71,321
35.72,320
35.73,321
35.74,322
35.75,321
35.76,321
35.77,321
35.78,321
35.79,321
35.8,319
35.81,321
35.82,322
35.83,321
35.84,320
35.85,320
35.86,321
35.87,321
35.88,320
35.89,322
35.9,322
35.91,321
35.92,321
35.93,322
35.94,321
35.95,322
35.96,319
35.97,321
35.98,321
35.99,320
36,322
36.01,321
36.02,322
36.03,321
36.04,321
36.05,322
36.06,321
36.07,321
36.08,321
36.09,321
36.1,323
36.11,321
36.12,322
36.13,321
36.14,321
36.15,321
36.16,322
36.17,322
36.18,322
36.19,321
36.2,321
36.21,321
36.22,321
36.23,321
36.24,321
36.25,321
36.26,321
36.27,321
36.28,321
36.29,321
36.3,321
36.31,322
36.32,322
36.33,320
36.34,323
36.35,321
36.36,321
36.37,322
36.38,321
36.39,322
36.4,321
36.41,321
36.42,320
36.43,321
36.44,320
36.45,322
36.46,322
36.47,321
36.48,321
36.49,322
36.5,321
36.51,321
36.52,322
36.53,321
36.54,321
36.55,321
36.56,320
36.57,321
36.58,321
36.59,321
36.6,321
36.61,321
36.62,321
36.63,322
36.64,323
36.65,321
36.66,322
36.67,323
36.68,321
36.69,321
36.7,322
36.71,321
36.72,322
36.73,321
36.74,321
36.75,321
36.76,321
36.77,321
36.78,321
36.79,322
36.8,322
36.81,322
36.82,322
36.83,321
36.84,320
36.85,322
36.86,321
36.87,321
36.88,322
36.89,322
36.9,321
36.91,321
36.92,321
36.93,321
36.94,321
36.95,321
36.96,321
36.97,322
36.98,320
36.99,321
37,321
37.01,321
37.02,322
37.03,321
37.04,321
37.05,322
37.06,321
37.07,321
37.08,321
37.09,322
37.1,321
37.11,321
37.12,321
37.13,321
37.14,322
37.15,321
37.16,321
37.17,322
37.18,322
37.19,321
37.2,321
37.21,321
37.22,322
37.23,322
37.24,322
37.25,321
37.26,321
37.27,321
37.28,322
37.29,322
37.3,322
37.31,322
37.32,322
37.33,321
37.34,321
37.35,322
37.36,322
37.37,321
37.38,322
37.39,321
37.4,321
37.41,322
37.42,322
37.43,322
37.44,322
37.45,323
37.46,320
37.47,321
37.48,321
37.49,320
37.5,321
37.51,321
37.52,322
37.53,321
37.54,322
37.55,321
37.56,321
37.57,321
37.58,322
37.59,321
37.6,321
37.61,321
37.62,321
37.63,321
37.64,322
37.65,321
37.66,321
37.67,321
37.68,321
37.69,321
37.7,321
37.71,321
37.72,321
37.73,320
37.74,321
37.75,321
37.76,320
37.77,322
37.78,321
37.79,321
37.8,321
37.81,321
37.82,321
37.83,322
37.84,321
37.85,321
37.86,322
37.87,321
37.88,321
37.89,321
37.9,321
37.91,321
37.92,321
37.93,321
37.94,321
